<?xml version="1.0"?>
<xrdMeasurements xmlns="http://www.xrdml.com/XRDMeasurement/2.3" xmlns:xsi="http://www.w3.org/2001/XMLSchema-instance" xsi:schemaLocation="http://www.xrdml.com/XRDMeasurement/2.3 http://www.xrdml.com/XRDMeasurement/2.3/XRDMeasurement.xsd" status="Completed" recordIdentifier="{E936D296-C2B7-4F1E-B793-64983FB30904}">
	<comment>
		<entry>Configuration=Stage for flat samples/holders, Owner=user, Creation date=2022/8/17 14:35:03</entry>
		<entry>Goniometer=Theta/Theta; Minimum step size 2Theta:0.0001; Minimum step size Omega:0.0001</entry>
		<entry>Sample stage=Stage for flat samples/holders</entry>
		<entry>Diffractometer system=EMPYREAN</entry>
		<entry>Measurement program=C:\PANalytical\Data Collector\Programs\OI.xrdmp, Created identifier={DCBD8AC7-4B89-4C88-A351-D1BB5E45255F}, Created by=user, Id=WL:DESKTOP-P0CKV1M:user, Creation date=2024/12/25 15:20:48, Modified identifier={183EADF2-9CCD-46D0-9A7E-89B1435A059F}, Modified by=user, Id=WL:DESKTOP-P0CKV1M:user, Modification date=2025/1/8 9:56:43</entry>
	</comment>
	<sample type="To be analyzed">
		<id></id>
		<name></name>
		<preparedBy></preparedBy>
	</sample>
	<xrdMeasurement measurementType="Scan" status="Completed" sampleMode="Reflection">
		<comment>
			<entry>PHD Lower Level = 5.63 (keV), PHD Upper Level = 12.88 (keV)</entry>
		</comment>
		<usedWavelength intended="K-Alpha 1">
			<kAlpha1 unit="Angstrom">1.5405980</kAlpha1>
			<kAlpha2 unit="Angstrom">1.5444260</kAlpha2>
			<kBeta unit="Angstrom">1.3922500</kBeta>
			<ratioKAlpha2KAlpha1>0.5000</ratioKAlpha2KAlpha1>
		</usedWavelength>
		<incidentBeamPath>
			<radius unit="mm">240.00</radius>
			<xRayTube id="1010048" name="Empyrean Cu LFF HR (9430 033 7310x) DK435787">
				<tension unit="kV">40.0</tension>
				<current unit="mA">40.0</current>
				<anodeMaterial>Cu</anodeMaterial>
				<focus type="Line">
					<length unit="mm">12.0</length>
					<width unit="mm">0.4</width>
					<takeOffAngle unit="deg">7.6</takeOffAngle>
				</focus>
			</xRayTube>
			<xRayMirror id="27020009" name="Bragg-Brentano HD Cu" hybrid="false">
				<crystal type="Graded" shape="Flat">BB/HD</crystal>
				<acceptanceAngle unit="deg">0.800</acceptanceAngle>
				<length unit="mm">55.3</length>
			</xRayMirror>
			<sollerSlit id="21010002" name="Soller slits 0.04 rad.">
				<opening unit="rad">0.0400</opening>
			</sollerSlit>
			<antiScatterSlit id="22010003" name="Fixed slit 1°" xsi:type="fixedAntiScatterSlitType">
				<height unit="mm">1.52</height>
			</antiScatterSlit>
			<divergenceSlit id="22010005" name="Fixed slit 1/4°" xsi:type="fixedDivergenceSlitType">
				<distanceToSample unit="mm">179.50</distanceToSample>
				<height unit="mm">0.38</height>
			</divergenceSlit>
		</incidentBeamPath>
		<diffractedBeamPath>
			<radius unit="mm">240.00</radius>
			<antiScatterSlit id="22090010" name="AS slit 8.0 mm (PIXcel)" xsi:type="fixedAntiScatterSlitType">
				<height unit="mm">8.00</height>
			</antiScatterSlit>
			<sollerSlit id="21020003" name="Large Soller slits 0.04 rad.">
				<opening unit="rad">0.0400</opening>
			</sollerSlit>
			<detector id="7010019" name="PIXcel1D-Medipix3 detector" xsi:type="rtmsDetectorType">
				<phd unit="%">
					<lowerLevel>35.0</lowerLevel>
					<upperLevel>80.0</upperLevel>
				</phd>
				<mode>Scanning</mode>
				<activeLength unit="deg">3.3482</activeLength>
			</detector>
		</diffractedBeamPath>
		<scan appendNumber="0" mode="Continuous" scanAxis="Gonio" status="Completed">
			<header>
				<startTimeStamp>2025-03-10T22:34:40+08:00</startTimeStamp>
				<endTimeStamp>2025-03-10T22:36:55+08:00</endTimeStamp>
				<author>
					<name>user</name>
				</author>
				<source>
					<applicationSoftware version="7.5b">Data Collector</applicationSoftware>
					<instrumentControlSoftware version="8.3b 20240626">EMPYREAN</instrumentControlSoftware>
					<instrumentID>0000000011271350</instrumentID>
				</source>
			</header>
			<dataPoints>
				<positions axis="2Theta" unit="deg">
					<startPosition>50.00656514</startPosition>
					<endPosition>79.99613077</endPosition>
				</positions>
				<positions axis="Omega" unit="deg">
					<startPosition>25.00328257</startPosition>
					<endPosition>39.99806539</endPosition>
				</positions>
				<commonCountingTime unit="seconds">9.945</commonCountingTime>
				<counts unit="counts">63 70 68 70 65 62 70 72 53 64 57 69 74 67 65 67 79 74 60 67 74 61 65 70 78 62 75 55 58 56 60 69 66 63 76 51 78 72 68 76 82 76 66 65 63 62 73 64 68 63 82 60 71 74 72 71 64 68 92 76 59 63 62 97 76 72 70 77 76 73 65 65 53 68 74 73 63 66 72 65 59 79 54 66 59 83 57 72 60 49 72 65 63 67 67 66 53 61 70 63 66 53 47 51 49 61 61 58 69 62 45 57 62 46 59 49 55 56 51 64 53 45 46 45 52 49 56 48 57 46 48 57 67 50 60 49 57 63 60 53 43 53 47 53 60 44 52 53 49 52 56 47 51 61 46 48 55 49 60 41 55 48 54 53 49 50 50 52 65 48 56 48 48 49 56 56 52 53 55 46 51 42 70 51 62 60 51 48 55 54 55 65 41 61 37 49 38 49 63 61 57 64 50 43 63 47 53 48 63 46 46 54 47 43 55 56 49 53 53 45 48 53 54 57 45 45 38 57 56 48 50 47 69 46 49 50 54 56 42 60 58 56 59 50 62 66 53 50 54 51 65 44 48 57 49 54 63 54 58 45 63 50 52 58 42 65 63 63 55 52 55 61 47 67 61 71 65 75 55 61 60 69 60 60 70 70 84 66 62 67 68 75 79 79 69 84 71 77 87 94 89 85 103 87 109 108 85 87 100 97 118 111 120 116 141 163 139 133 142 167 168 176 201 195 207 208 244 261 276 259 275 304 328 338 375 415 418 461 500 550 552 652 676 702 731 750 794 803 840 866 839 803 706 693 739 616 645 563 570 504 454 494 454 411 318 287 303 220 239 181 160 145 151 140 115 111 130 105 112 121 108 78 105 95 80 84 95 98 87 79 73 80 76 72 82 72 78 80 87 99 72 70 70 79 70 71 69 58 81 73 66 79 83 59 74 77 72 58 78 67 74 67 78 74 79 73 89 67 87 91 105 89 97 121 100 110 118 128 128 145 162 161 195 215 233 259 281 297 333 435 427 538 586 675 766 913 1012 1155 1435 1685 1919 2272 2614 2873 2905 2782 2271 1762 1356 1169 1183 1196 1226 1352 1573 1556 1587 1396 998 735 449 383 304 260 211 173 164 134 137 123 129 153 121 107 84 108 89 87 82 91 93 76 79 88 72 75 61 74 72 74 76 78 74 55 74 76 75 84 68 77 67 51 52 59 75 61 64 72 43 48 58 61 67 63 64 63 47 59 69 58 65 66 60 65 57 58 45 59 47 53 54 53 48 60 43 47 50 54 56 50 52 58 57 65 51 60 63 69 60 55 45 51 52 69 51 54 47 63 38 56 63 59 60 60 42 53 45 55 38 49 40 54 54 54 49 59 51 51 60 48 50 60 47 66 47 46 57 53 52 54 54 57 41 61 41 56 58 42 47 58 50 64 46 54 50 60 43 61 57 59 37 50 57 45 49 47 60 63 57 70 48 62 56 53 47 46 44 53 54 48 50 56 42 49 56 63 55 52 49 62 47 52 51 53 51 70 68 54 65 70 58 73 55 56 47 52 62 50 34 54 70 59 58 47 50 66 57 56 60 45 62 51 60 55 50 58 71 49 80 66 58 66 82 64 66 77 78 64 65 71 68 72 63 71 66 93 109 86 80 78 67 79 86 89 81 80 53 75 77 85 95 83 86 96 92 80 97 96 93 86 83 88 87 102 99 99 105 98 73 94 81 104 89 104 104 85 94 104 88 91 97 82 60 81 85 82 92 103 88 96 84 87 99 84 61 91 80 90 76 72 50 81 70 66 70 57 91 90 80 79 82 71 72 74 80 68 60 63 55 80 60 60 61 63 75 49 55 59 91 43 74 62 76 61 65 64 66 61 77 56 51 41 54 46 50 54 58 58 47 52 42 59 62 49 72 41 54 59 64 62 43 58 70 43 51 50 52 44 43 42 56 52 35 51 58 53 41 46 39 35 64 48 41 39 59 44 44 54 44 37 53 38 45 39 44 45 48 40 48 51 39 47 36 51 47 47 50 43 44 42 40 36 47 42 53 39 41 40 35 37 32 38 46 43 32 38 37 43 49 39 39 50 49 50 44 42 54 36 40 35 31 38 40 52 44 39 40 39 33 39 44 25 36 31 40 41 32 39 36 33 46 32 27 49 39 48 34 45 31 41 36 43 38 28 25 30 37 26 43 31 29 45 39 43 30 36 40 34 34 39 52 42 38 38 36 39 29 29 50 41 28 34 30 41 37 54 31 33 37 31 37 37 35 35 28 43 38 48 42 40 48 38 40 33 35 47 43 43 39 52 21 36 43 40 34 46 34 38 37 35 31 43 24 47 40 40 32 41 32 29 29 31 40 49 44 21 29 32 43 40 36 43 36 28 33 39 38 30 32 37 33 22 30 39 33 32 44 40 33 37 38 29 47 29 32 39 32 36 33 39 49 36 42 32 21 37 35 23 32 34 37 35 31 24 28 35 36 33 39 35 35 33 37 39 29 38 42 32 35 35 34 35 32 35 32 29 26 28 30 34 30 34 27 21 41 36 42 34 39 37 28 31 39 30 32 38 30 32 47 35 37 42 32 41 30 28 40 35 35 20 29 40 29 35 38 31 32 26 36 38 32 32 29 29 23 30 45 29 37 31 35 32 43 37 35 25 28 30 44 26 43 28 33 40 30 31 37 34 32 26 29 44 45 46 32 36 39 35 30 30 33 42 41 28 29 38 33 41 40 39 37 36 31 41 31 41 37 31 41 28 27 24 37 39 32 29 26 41 21 21 36 33 29 39 40 35 27 28 32 41 24 18 37 31 29 31 39 33 35 41 30 30 34 39 31 26 39 29 29 32 38 27 26 35 33 28 39 41 27 33 26 30 37 31 30 31 31 35 36 27 36 40 36 39 40 40 27 36 26 41 29 35 28 29 29 31 37 28 29 40 31 33 27 36 30 26 33 35 46 33 36 32 33 31 31 31 30 41 30 36 32 34 37 30 36 30 31 27 39 25 24 37 41 33 32 42 27 24 28 30 35 37 38 24 33 31 41 45 33 36 24 40 27 31 36 33 40 23 31 26 30 33 40 33 34 38 29 35 31 38 30 30 24 30 35 41 31 34 32 46 33 42 32 29 39 30 29 35 38 38 35 33 25 39 33 32 36 40 35 39 42 46 31 32 38 38 33 39 36 29 45 40 31 34 40 42 32 32 32 31 49 40 42 45 46 44 43 43 46 42 53 47 55 43 48 58 49 56 75 49 65 75 62 76 74 93 90 105 103 140 121 151 163 163 218 221 221 299 329 389 465 532 551 592 626 650 578 475 394 308 286 269 263 244 274 301 305 333 362 394 367 351 247 217 157 131 112 86 90 77 67 75 70 52 52 51 53 39 45 42 48 52 32 33 56 42 41 41 43 28 36 38 40 42 33 35 37 47 36 45 50 30 30 44 50 41 45 37 31 28 28 29 33 28 45 50 53 47 31 43 38 31 36 32 33 49 45 45 41 31 40 38 50 31 47 26 41 46 45 33 32 45 30 37 35 40 38 40 46 37 30 43 38 40 38 48 43 33 33 32 40 29 42 41 37 24 32 46 38 29 36 31 31 31 39 43 34 29 30 28 42 26 28 34 36 34 39 47 32 36 42 50 28 37 41 39 44 41 35 31 38 35 35 43 29 44 42 35 26 38 43 32 44 31 30 36 43 39 48 39 42 41 43 37 30 31 28 38 28 46 43 32 26 32 35 31 37 34 39 29 34 47 36 32 31 30 29 41 38 40 43 38 29 33 40 33 30 40 33 36 26 35 32 26 30 50 39 38 40 48 37 38 36 39 33 34 28 32 35 29 41 27 30 38 31 38 39 34 34 47 42 34 27 45 37 42 29 28 36 34 34 31 33 26 33 32 42 39 40 36 43 26 23 33 39 39 36 36 31 35 23 24 36 27 34 38 35 36 35 26 25 40 30 28 32 31 32 28 34 30 33 24 21 25 40 37 37 30 23 30 30 26 26 27 32 36 31 44 29 18 28 30 20 41 39 34 30 33 28 30 36 43 24 30 37 22 32 27 38 42 27 20 32 31 38 29 29 28 28 26 37 37 44 48 37 45 29 27 28 23 30 29 39 44 48 39 31 39 32 33 39 40 37 29 35 33 37 33 30 22 38 26 31 30 36 30 26 30 29 36 39 35 26 31 21 33 25 34 28 33 29 38 35 32 31 29 36 25 43 38 39 32 35 26 27 34 32 29 34 43 25 38 37 35 36 32 35 25 28 41 44 40 17 39 40 26 34 31 34 34 32 41 34 40 28 32 27 39 36 34 27 31 25 38 37 35 32 38 45 32 36 42 29 31 28 34 31 34 37 29 21 48 44 39 39 27 37 35 39 35 30 33 43 40 29 27 31 37 24 31 44 40 40 36 39 32 38 30 29 43 44 43 42 45 32 39 38 47 38 41 41 36 40 48 54 45 49 33 45 48 41 52 69 50 55 54 78 68 64 53 64 69 77 89 92 92 123 114 122 154 157 178 186 213 228 245 321 352 374 451 454 555 679 771 807 956 980 988 848 732 554 432 363 328 320 307 315 333 362 417 490 480 515 558 517 524 385 308 268 183 171 127 103 106 84 77 82 85 73 70 65 49 56 55 56 70 39 50 50 58 63 46 53 48 57 53 51 50 44 55 56 49 46 53 69 44 49 49 45 71 57 62 69 58 72 78 87 79 105 98 122 135 148 165 155 188 174 218 266 274 275 298 321 260 247 227 205 193 184 156 176 125 171 163 145 171 172 174 164 202 183 158 157 102 99 97 75 73 79 71 59 70 47 55 50 55 60 49 55 59 45 34 40 32 52 38 57 46 36 56 33 44 30 42 42 42 39 41 39 55 40 36 40 36 26 40 41 37 45 39 47 41 27 41 30 40 33 46 42 29 40 44 37 32 31 39 35 32 40 36 30 38 28 33 28 29 38 38 30 44 35 40 35 47 53 32 28 26 41 33 40 35 45 35 30 24 31 38 34 38 32 33 37 40 35 39 42 32 36 36 25 30 34 33 34 52 37 38 36 43 27 34 30 30 40 36 40 35 43 36 41 35 32 42 33 27 45 34 27 38 23 36 36 33 49 33 37 39 40 41 44 29 34 43 32 31 35 30 48 41 37 42 41 43 32 33 39 39 37 37 36 33 40 39 25</counts>
			</dataPoints>
		</scan>
	</xrdMeasurement>
</xrdMeasurements>
