<?xml version="1.0"?>
<xrdMeasurements xmlns="http://www.xrdml.com/XRDMeasurement/2.3" xmlns:xsi="http://www.w3.org/2001/XMLSchema-instance" xsi:schemaLocation="http://www.xrdml.com/XRDMeasurement/2.3 http://www.xrdml.com/XRDMeasurement/2.3/XRDMeasurement.xsd" status="Completed" recordIdentifier="{D2E59E87-ABB2-4DFD-A748-7ACDE68717DA}">
	<comment>
		<entry>Configuration=Stage for flat samples/holders, Owner=user, Creation date=2022/8/17 14:35:03</entry>
		<entry>Goniometer=Theta/Theta; Minimum step size 2Theta:0.0001; Minimum step size Omega:0.0001</entry>
		<entry>Sample stage=Stage for flat samples/holders</entry>
		<entry>Diffractometer system=EMPYREAN</entry>
		<entry>Measurement program=C:\PANalytical\Data Collector\Programs\OI.xrdmp, Created identifier={DCBD8AC7-4B89-4C88-A351-D1BB5E45255F}, Created by=user, Id=WL:DESKTOP-P0CKV1M:user, Creation date=2024/12/25 15:20:48, Modified identifier={183EADF2-9CCD-46D0-9A7E-89B1435A059F}, Modified by=user, Id=WL:DESKTOP-P0CKV1M:user, Modification date=2025/1/8 9:56:43</entry>
	</comment>
	<sample type="To be analyzed">
		<id></id>
		<name></name>
		<preparedBy></preparedBy>
	</sample>
	<xrdMeasurement measurementType="Scan" status="Completed" sampleMode="Reflection">
		<comment>
			<entry>PHD Lower Level = 5.63 (keV), PHD Upper Level = 12.88 (keV)</entry>
		</comment>
		<usedWavelength intended="K-Alpha 1">
			<kAlpha1 unit="Angstrom">1.5405980</kAlpha1>
			<kAlpha2 unit="Angstrom">1.5444260</kAlpha2>
			<kBeta unit="Angstrom">1.3922500</kBeta>
			<ratioKAlpha2KAlpha1>0.5000</ratioKAlpha2KAlpha1>
		</usedWavelength>
		<incidentBeamPath>
			<radius unit="mm">240.00</radius>
			<xRayTube id="1010048" name="Empyrean Cu LFF HR (9430 033 7310x) DK435787">
				<tension unit="kV">40.0</tension>
				<current unit="mA">40.0</current>
				<anodeMaterial>Cu</anodeMaterial>
				<focus type="Line">
					<length unit="mm">12.0</length>
					<width unit="mm">0.4</width>
					<takeOffAngle unit="deg">7.6</takeOffAngle>
				</focus>
			</xRayTube>
			<xRayMirror id="27020009" name="Bragg-Brentano HD Cu" hybrid="false">
				<crystal type="Graded" shape="Flat">BB/HD</crystal>
				<acceptanceAngle unit="deg">0.800</acceptanceAngle>
				<length unit="mm">55.3</length>
			</xRayMirror>
			<sollerSlit id="21010002" name="Soller slits 0.04 rad.">
				<opening unit="rad">0.0400</opening>
			</sollerSlit>
			<antiScatterSlit id="22010003" name="Fixed slit 1°" xsi:type="fixedAntiScatterSlitType">
				<height unit="mm">1.52</height>
			</antiScatterSlit>
			<divergenceSlit id="22010005" name="Fixed slit 1/4°" xsi:type="fixedDivergenceSlitType">
				<distanceToSample unit="mm">179.50</distanceToSample>
				<height unit="mm">0.38</height>
			</divergenceSlit>
		</incidentBeamPath>
		<diffractedBeamPath>
			<radius unit="mm">240.00</radius>
			<antiScatterSlit id="22090010" name="AS slit 8.0 mm (PIXcel)" xsi:type="fixedAntiScatterSlitType">
				<height unit="mm">8.00</height>
			</antiScatterSlit>
			<sollerSlit id="21020003" name="Large Soller slits 0.04 rad.">
				<opening unit="rad">0.0400</opening>
			</sollerSlit>
			<detector id="7010019" name="PIXcel1D-Medipix3 detector" xsi:type="rtmsDetectorType">
				<phd unit="%">
					<lowerLevel>35.0</lowerLevel>
					<upperLevel>80.0</upperLevel>
				</phd>
				<mode>Scanning</mode>
				<activeLength unit="deg">3.3482</activeLength>
			</detector>
		</diffractedBeamPath>
		<scan appendNumber="0" mode="Continuous" scanAxis="Gonio" status="Completed">
			<header>
				<startTimeStamp>2025-03-10T22:31:29+08:00</startTimeStamp>
				<endTimeStamp>2025-03-10T22:33:44+08:00</endTimeStamp>
				<author>
					<name>user</name>
				</author>
				<source>
					<applicationSoftware version="7.5b">Data Collector</applicationSoftware>
					<instrumentControlSoftware version="8.3b 20240626">EMPYREAN</instrumentControlSoftware>
					<instrumentID>0000000011271350</instrumentID>
				</source>
			</header>
			<dataPoints>
				<positions axis="2Theta" unit="deg">
					<startPosition>50.00656514</startPosition>
					<endPosition>79.99613077</endPosition>
				</positions>
				<positions axis="Omega" unit="deg">
					<startPosition>25.00328257</startPosition>
					<endPosition>39.99806539</endPosition>
				</positions>
				<commonCountingTime unit="seconds">9.945</commonCountingTime>
				<counts unit="counts">82 53 65 66 78 65 66 63 70 64 65 70 69 59 65 72 72 67 62 62 75 78 69 78 65 68 75 64 79 74 65 76 71 69 63 78 77 76 72 75 72 74 82 78 75 73 77 85 67 60 66 83 77 77 82 70 83 62 74 78 84 72 84 78 84 67 81 73 79 79 72 80 67 68 58 62 70 61 51 67 64 69 69 58 64 61 69 81 66 68 53 66 76 73 75 67 68 66 74 70 64 69 75 63 77 70 50 49 52 61 60 63 47 57 69 78 49 54 51 43 47 55 59 60 55 51 59 51 53 71 58 53 61 70 61 61 54 48 50 53 67 47 51 51 58 61 57 68 45 51 38 61 51 71 62 49 60 50 55 55 55 60 53 57 63 52 55 46 55 60 58 66 39 56 47 71 63 64 59 66 45 56 46 48 52 56 54 47 55 57 51 40 49 62 57 51 64 49 56 50 58 54 49 56 55 50 49 67 48 55 51 54 59 70 53 56 45 50 54 53 38 58 55 60 51 53 44 52 47 59 58 56 52 54 58 57 58 48 62 66 46 64 48 65 52 53 48 59 52 63 62 70 61 65 54 61 54 70 61 47 63 67 47 65 73 46 53 66 52 63 55 68 63 61 64 50 66 66 51 66 71 66 62 73 71 70 69 73 65 81 79 75 84 64 68 80 88 83 93 109 109 87 102 96 97 92 101 97 113 111 118 109 122 131 120 143 148 140 162 167 160 179 184 206 206 236 274 280 260 287 335 349 373 406 401 468 519 481 538 589 634 658 715 753 810 793 867 845 859 877 917 855 795 778 696 666 648 617 600 601 523 497 481 447 416 349 279 249 232 196 160 172 155 150 135 113 109 128 94 95 106 80 108 89 92 96 85 96 101 71 76 75 81 66 73 74 92 97 70 68 64 60 81 71 64 66 65 70 75 66 73 90 79 54 65 88 71 78 83 88 74 80 76 80 84 76 93 86 87 77 85 99 92 101 107 96 113 107 116 161 151 156 180 203 216 268 275 307 379 387 427 448 578 698 763 838 1019 1163 1347 1616 1867 2126 2464 2722 2814 2685 2243 1808 1360 1192 1160 1113 1229 1303 1390 1428 1489 1417 1027 763 517 398 288 243 238 185 176 149 156 147 118 120 119 111 105 103 93 108 94 91 85 73 85 85 73 82 66 81 81 68 69 65 62 76 63 67 78 89 62 60 71 72 50 79 68 69 76 67 61 76 60 52 47 57 58 66 56 54 71 74 77 61 45 57 60 51 63 56 57 55 65 65 58 56 59 57 65 58 67 49 39 46 51 47 67 47 64 51 60 59 60 51 57 50 48 48 55 59 64 53 36 49 52 46 44 55 65 60 57 44 58 55 43 52 56 37 69 37 55 61 55 53 46 54 45 52 50 38 56 62 69 55 52 72 53 44 52 62 63 62 59 54 58 63 50 40 62 58 65 54 59 55 61 58 50 55 45 44 53 51 45 67 57 51 65 49 52 53 51 58 71 59 74 57 59 62 73 44 58 63 67 46 50 68 56 59 67 66 65 71 55 66 63 67 74 81 71 82 63 64 61 68 86 68 60 65 81 62 73 81 66 60 92 79 76 57 74 76 61 66 70 74 84 95 86 85 74 85 65 78 74 83 75 84 85 67 82 85 110 90 90 76 74 90 85 101 92 101 103 93 99 103 101 91 90 114 106 101 110 93 100 110 93 102 92 111 91 116 99 109 100 137 101 105 113 92 96 108 87 108 101 100 109 97 88 91 99 101 104 110 88 86 100 95 96 83 99 84 103 93 82 74 97 91 77 79 86 94 96 73 66 78 74 91 82 63 77 84 74 77 70 68 71 59 60 79 79 67 60 61 72 75 67 50 62 49 68 60 58 75 52 54 64 59 52 47 63 69 52 50 49 67 60 53 54 38 74 49 45 57 58 59 56 58 56 56 55 62 61 48 47 40 61 46 67 52 34 55 49 40 44 51 45 52 44 47 35 66 44 51 57 45 48 42 44 54 43 47 47 48 44 36 49 35 34 55 58 34 51 57 45 53 33 46 44 43 42 47 49 39 45 43 54 49 35 44 46 46 50 51 52 40 38 41 41 44 52 37 32 45 41 34 39 38 44 47 45 36 41 40 32 49 41 42 35 40 38 40 39 42 49 49 48 38 46 55 23 46 46 38 36 50 32 32 32 34 41 58 42 38 29 41 45 37 29 32 21 45 42 36 49 47 41 34 45 42 35 39 49 47 42 33 27 43 43 34 37 39 43 51 50 36 31 37 42 33 41 33 39 37 44 36 46 29 49 44 42 40 33 48 45 34 38 34 38 39 41 35 40 38 32 39 31 25 30 39 26 51 31 33 41 31 50 23 31 38 36 32 34 36 44 28 45 33 26 43 29 37 35 40 33 32 34 36 39 44 28 29 38 36 28 31 42 30 30 38 36 35 44 40 39 42 44 24 34 34 37 27 30 37 40 36 36 28 36 39 39 40 37 38 32 32 32 34 36 44 41 24 37 31 23 35 40 41 31 31 42 40 22 38 38 46 36 32 39 37 34 31 29 44 28 36 37 31 48 36 29 24 22 32 25 31 44 28 33 32 27 42 39 38 31 36 25 29 47 25 31 31 34 36 33 45 33 47 41 37 27 34 47 39 25 30 37 34 32 39 37 28 30 28 37 36 35 35 30 41 44 40 34 40 31 41 28 40 38 33 23 35 33 25 30 26 39 33 30 43 43 26 46 32 39 26 32 27 40 30 33 34 41 32 35 31 29 30 42 28 26 38 45 31 39 40 34 39 27 29 41 32 34 27 38 38 35 30 28 35 31 27 23 36 30 30 31 55 35 36 27 45 31 30 27 34 24 44 34 31 30 26 18 33 26 42 32 34 37 42 26 38 33 30 33 36 33 33 34 42 43 36 37 40 36 35 37 44 38 36 31 44 27 30 39 33 32 49 33 33 31 34 35 29 44 31 29 29 28 38 37 36 39 30 42 47 31 38 31 29 34 47 46 34 34 30 32 42 34 33 46 39 33 28 33 26 30 40 31 38 37 42 28 46 37 38 34 35 51 38 39 35 36 41 35 46 34 29 34 39 47 46 30 46 31 42 39 26 33 35 45 37 38 29 44 43 42 40 35 25 34 32 45 43 35 33 42 46 38 46 28 37 36 40 47 31 35 44 39 35 37 36 42 31 39 35 35 30 40 46 41 32 44 34 35 37 46 54 47 52 51 48 32 39 50 37 48 52 58 53 44 44 54 68 63 42 79 74 74 86 80 111 123 116 118 138 163 207 207 231 220 302 306 357 412 471 561 598 596 675 621 496 406 322 298 257 249 259 249 311 261 338 367 383 352 335 291 234 167 137 119 95 86 78 66 52 63 66 59 46 46 45 44 47 54 55 58 40 47 43 48 33 44 48 42 40 48 48 45 36 37 29 24 30 38 37 44 48 53 31 45 42 43 45 38 29 41 34 37 44 34 40 49 37 37 50 43 34 42 41 43 35 35 27 38 42 32 38 52 37 39 43 32 30 46 40 43 37 39 39 40 42 44 31 31 28 31 37 33 39 35 33 31 29 40 36 27 43 19 47 34 43 33 37 42 37 35 39 38 44 34 43 54 37 44 34 32 36 36 39 39 39 39 23 36 29 40 42 34 38 37 36 39 33 37 44 49 28 39 36 35 53 58 42 32 43 36 49 38 42 37 43 33 33 27 37 37 44 34 41 34 52 40 41 41 41 43 38 34 46 43 42 27 35 49 34 42 28 41 42 34 40 27 32 47 39 35 45 53 37 44 32 30 31 38 34 34 31 33 32 34 40 35 52 37 42 57 39 44 32 25 41 27 33 28 44 40 44 32 40 37 35 40 28 41 33 30 30 45 26 41 34 34 36 31 32 34 31 40 37 32 40 27 39 36 39 24 34 19 32 44 36 33 28 32 28 30 51 36 37 33 40 49 32 43 41 44 33 33 37 41 24 28 36 32 35 47 29 37 41 42 33 29 29 23 35 36 34 36 35 37 39 24 32 29 30 35 35 30 40 49 42 36 35 28 40 35 25 34 29 26 32 35 28 43 37 27 32 33 28 28 33 38 34 36 37 28 39 29 37 32 38 35 34 30 36 34 30 33 40 30 30 30 29 36 30 31 37 33 30 51 36 42 36 34 30 42 27 38 37 39 43 33 44 35 37 39 42 34 34 42 33 41 51 35 34 29 38 44 33 38 32 24 40 39 33 35 38 35 27 42 36 35 25 37 37 32 43 32 38 17 38 27 43 41 37 48 42 43 29 30 29 24 26 42 38 36 38 39 32 34 34 35 30 36 34 21 35 44 33 29 34 40 37 38 34 40 27 42 40 32 45 42 29 38 31 39 27 30 26 46 30 39 47 37 42 34 42 32 41 50 36 34 33 41 41 33 40 34 34 41 42 35 31 46 31 34 37 38 35 43 45 38 38 43 41 38 55 43 45 38 39 52 47 45 67 49 70 52 63 66 60 66 69 79 92 70 106 96 108 122 115 115 146 150 187 191 213 224 246 307 362 351 447 479 546 636 688 777 922 966 974 905 772 598 443 410 336 325 290 329 356 365 382 420 448 484 519 539 482 441 336 226 178 165 127 107 97 80 78 75 72 72 59 66 52 77 64 55 48 47 61 51 54 52 45 49 44 61 49 44 55 46 50 61 37 52 54 54 56 52 60 58 72 52 78 58 72 88 101 87 102 96 129 126 120 150 178 204 191 226 228 279 315 318 329 347 310 284 232 216 192 188 172 186 171 161 175 160 194 196 197 206 197 202 178 191 147 102 119 88 80 75 79 70 68 73 60 58 55 60 48 64 48 40 43 56 38 54 51 56 51 54 40 46 42 50 48 38 46 45 54 44 38 40 42 36 46 39 48 46 46 50 34 41 35 39 27 39 45 45 40 42 34 38 53 43 45 29 40 38 43 44 53 38 36 29 41 32 37 29 39 29 21 41 28 36 45 44 40 48 31 31 36 35 38 40 24 39 38 56 55 40 36 40 42 40 37 43 28 50 32 35 34 43 35 27 34 38 37 33 44 42 33 52 34 28 42 27 28 42 48 35 36 30 32 44 40 42 49 52 34 37 38 31 44 39 36 34 44 43 47 37 35 38 27 40 29 29 47 38 42 38 51 39 42 41 35 33 38 23 34 45 41 33 49 28 33 46</counts>
			</dataPoints>
		</scan>
	</xrdMeasurement>
</xrdMeasurements>
