<?xml version="1.0"?>
<xrdMeasurements xmlns="http://www.xrdml.com/XRDMeasurement/2.3" xmlns:xsi="http://www.w3.org/2001/XMLSchema-instance" xsi:schemaLocation="http://www.xrdml.com/XRDMeasurement/2.3 http://www.xrdml.com/XRDMeasurement/2.3/XRDMeasurement.xsd" status="Completed" recordIdentifier="{5EDA5E3F-C203-4A50-B896-6FEDA524E541}">
	<comment>
		<entry>Configuration=Stage for flat samples/holders, Owner=user, Creation date=2022/8/17 14:35:03</entry>
		<entry>Goniometer=Theta/Theta; Minimum step size 2Theta:0.0001; Minimum step size Omega:0.0001</entry>
		<entry>Sample stage=Stage for flat samples/holders</entry>
		<entry>Diffractometer system=EMPYREAN</entry>
		<entry>Measurement program=C:\PANalytical\Data Collector\Programs\OI.xrdmp, Created identifier={DCBD8AC7-4B89-4C88-A351-D1BB5E45255F}, Created by=user, Id=WL:DESKTOP-P0CKV1M:user, Creation date=2024/12/25 15:20:48, Modified identifier={183EADF2-9CCD-46D0-9A7E-89B1435A059F}, Modified by=user, Id=WL:DESKTOP-P0CKV1M:user, Modification date=2025/1/8 9:56:43</entry>
	</comment>
	<sample type="To be analyzed">
		<id></id>
		<name></name>
		<preparedBy></preparedBy>
	</sample>
	<xrdMeasurement measurementType="Scan" status="Completed" sampleMode="Reflection">
		<comment>
			<entry>PHD Lower Level = 5.63 (keV), PHD Upper Level = 12.88 (keV)</entry>
		</comment>
		<usedWavelength intended="K-Alpha 1">
			<kAlpha1 unit="Angstrom">1.5405980</kAlpha1>
			<kAlpha2 unit="Angstrom">1.5444260</kAlpha2>
			<kBeta unit="Angstrom">1.3922500</kBeta>
			<ratioKAlpha2KAlpha1>0.5000</ratioKAlpha2KAlpha1>
		</usedWavelength>
		<incidentBeamPath>
			<radius unit="mm">240.00</radius>
			<xRayTube id="1010048" name="Empyrean Cu LFF HR (9430 033 7310x) DK435787">
				<tension unit="kV">40.0</tension>
				<current unit="mA">40.0</current>
				<anodeMaterial>Cu</anodeMaterial>
				<focus type="Line">
					<length unit="mm">12.0</length>
					<width unit="mm">0.4</width>
					<takeOffAngle unit="deg">7.6</takeOffAngle>
				</focus>
			</xRayTube>
			<xRayMirror id="27020009" name="Bragg-Brentano HD Cu" hybrid="false">
				<crystal type="Graded" shape="Flat">BB/HD</crystal>
				<acceptanceAngle unit="deg">0.800</acceptanceAngle>
				<length unit="mm">55.3</length>
			</xRayMirror>
			<sollerSlit id="21010002" name="Soller slits 0.04 rad.">
				<opening unit="rad">0.0400</opening>
			</sollerSlit>
			<antiScatterSlit id="22010003" name="Fixed slit 1°" xsi:type="fixedAntiScatterSlitType">
				<height unit="mm">1.52</height>
			</antiScatterSlit>
			<divergenceSlit id="22010005" name="Fixed slit 1/4°" xsi:type="fixedDivergenceSlitType">
				<distanceToSample unit="mm">179.50</distanceToSample>
				<height unit="mm">0.38</height>
			</divergenceSlit>
		</incidentBeamPath>
		<diffractedBeamPath>
			<radius unit="mm">240.00</radius>
			<antiScatterSlit id="22090010" name="AS slit 8.0 mm (PIXcel)" xsi:type="fixedAntiScatterSlitType">
				<height unit="mm">8.00</height>
			</antiScatterSlit>
			<sollerSlit id="21020003" name="Large Soller slits 0.04 rad.">
				<opening unit="rad">0.0400</opening>
			</sollerSlit>
			<detector id="7010019" name="PIXcel1D-Medipix3 detector" xsi:type="rtmsDetectorType">
				<phd unit="%">
					<lowerLevel>35.0</lowerLevel>
					<upperLevel>80.0</upperLevel>
				</phd>
				<mode>Scanning</mode>
				<activeLength unit="deg">3.3482</activeLength>
			</detector>
		</diffractedBeamPath>
		<scan appendNumber="0" mode="Continuous" scanAxis="Gonio" status="Completed">
			<header>
				<startTimeStamp>2025-03-10T22:27:35+08:00</startTimeStamp>
				<endTimeStamp>2025-03-10T22:29:49+08:00</endTimeStamp>
				<author>
					<name>user</name>
				</author>
				<source>
					<applicationSoftware version="7.5b">Data Collector</applicationSoftware>
					<instrumentControlSoftware version="8.3b 20240626">EMPYREAN</instrumentControlSoftware>
					<instrumentID>0000000011271350</instrumentID>
				</source>
			</header>
			<dataPoints>
				<positions axis="2Theta" unit="deg">
					<startPosition>50.00656514</startPosition>
					<endPosition>79.99613077</endPosition>
				</positions>
				<positions axis="Omega" unit="deg">
					<startPosition>25.00328257</startPosition>
					<endPosition>39.99806539</endPosition>
				</positions>
				<commonCountingTime unit="seconds">9.945</commonCountingTime>
				<counts unit="counts">56 57 60 48 60 65 68 65 66 71 63 65 69 42 71 71 65 67 74 59 58 61 88 67 57 81 48 63 58 72 55 72 84 60 55 68 86 65 67 76 56 56 75 58 69 63 71 57 60 65 73 55 66 74 64 72 65 64 65 72 62 81 67 68 78 71 62 65 73 65 50 57 55 64 46 60 58 69 74 82 60 56 54 67 49 68 66 60 63 57 54 60 67 70 44 66 55 59 48 59 56 54 54 54 61 64 49 51 52 55 61 55 64 49 52 53 49 51 48 41 46 51 53 37 47 61 49 55 65 61 57 50 53 68 70 44 53 39 68 62 56 67 63 57 52 57 58 51 51 64 44 51 42 54 57 53 48 66 49 59 56 52 60 48 47 42 52 62 61 47 53 43 50 62 61 49 57 47 34 61 62 53 46 42 57 51 54 58 60 55 50 53 42 50 50 54 48 64 47 51 49 49 50 65 42 52 50 59 70 48 43 55 58 48 51 45 57 41 43 53 61 54 47 57 65 50 49 59 49 42 58 57 66 47 61 58 72 56 47 48 50 59 46 57 41 43 60 44 56 54 57 44 56 59 56 52 45 58 50 67 67 60 65 60 61 70 56 57 61 69 64 62 58 51 52 71 57 60 59 58 60 59 62 50 54 86 63 75 68 64 60 61 84 85 73 66 83 102 86 79 91 107 86 81 85 93 89 97 115 129 145 117 112 129 109 138 142 141 177 170 166 178 183 171 224 230 228 258 250 300 313 288 353 405 402 430 451 486 507 581 616 660 753 769 762 904 891 926 946 973 923 918 858 812 735 685 689 609 628 582 549 562 477 439 398 363 307 244 223 191 187 157 140 136 135 119 115 112 105 113 101 105 98 99 96 77 77 94 89 63 65 79 74 86 72 77 92 72 74 63 77 76 72 64 59 68 66 61 68 71 72 68 61 65 68 75 62 59 74 75 60 66 71 59 69 71 69 78 83 87 91 86 91 100 123 104 108 103 141 158 127 188 180 176 204 211 211 305 282 384 428 435 481 630 713 875 986 1188 1376 1664 1972 2205 2676 2985 3132 3007 2385 1948 1400 1266 1185 1252 1343 1499 1601 1680 1653 1433 1133 831 492 387 304 275 223 217 174 147 168 146 138 112 109 94 122 99 104 102 82 89 112 70 102 70 86 70 84 75 68 83 59 63 89 74 71 69 66 60 65 69 72 68 82 57 55 64 75 55 55 61 53 69 56 65 59 54 53 49 49 58 62 63 49 55 72 59 52 38 52 62 65 73 49 59 55 54 54 52 63 46 52 56 42 57 45 60 48 43 55 53 49 55 39 49 52 55 31 57 45 52 52 45 46 68 37 48 46 35 60 44 52 52 44 44 46 53 56 64 49 52 47 55 48 54 42 45 40 54 54 43 52 42 48 48 52 34 50 55 45 55 56 43 47 40 49 39 50 61 48 42 43 61 56 58 49 60 35 61 45 60 55 56 57 50 42 56 60 43 43 50 50 47 58 53 46 58 51 51 66 60 61 59 56 49 51 60 76 67 58 62 52 69 54 56 61 59 44 49 62 50 72 56 58 47 55 63 73 62 60 58 49 73 80 60 59 78 69 63 63 76 74 63 72 64 81 51 68 80 79 79 66 77 67 67 60 74 72 74 86 73 97 79 71 90 85 82 74 85 81 85 91 106 85 76 90 73 93 86 99 98 104 90 83 87 75 100 88 88 87 92 81 94 86 98 94 98 96 96 86 107 93 91 102 90 94 87 86 102 80 95 81 90 87 78 82 88 82 86 80 87 80 82 83 78 102 69 72 71 79 65 82 64 77 72 64 55 68 69 71 71 71 62 63 69 54 72 58 45 69 65 72 76 61 54 41 60 60 58 63 66 62 48 61 55 57 63 44 50 60 57 47 54 40 50 57 61 49 50 40 45 52 51 46 45 54 57 60 42 44 57 53 41 49 37 51 42 46 44 50 51 40 52 36 52 43 38 55 48 51 43 40 50 53 43 59 45 38 48 56 43 53 40 50 34 32 36 35 54 42 50 48 49 47 42 45 41 31 41 47 49 39 37 47 39 50 43 34 43 31 40 35 41 36 34 46 31 37 44 39 44 35 35 35 44 35 34 49 42 36 41 40 39 38 45 42 32 40 44 39 34 45 45 35 41 45 37 45 37 22 38 44 48 36 37 31 26 42 28 36 45 34 29 38 26 33 46 38 34 33 48 26 30 33 32 39 38 34 26 31 37 33 30 28 34 30 39 28 41 43 36 32 45 43 33 21 35 29 35 43 31 40 31 47 41 45 33 37 30 37 43 27 33 33 33 32 28 35 33 36 39 32 27 33 46 39 33 44 35 38 37 31 33 32 28 29 37 27 26 34 32 34 25 33 24 44 31 32 23 36 28 28 33 20 40 35 38 33 32 32 41 28 33 45 30 40 34 32 19 35 32 21 32 35 25 32 36 43 34 36 26 30 25 36 32 32 30 38 30 32 39 26 35 25 29 33 40 32 41 33 25 33 29 31 37 45 30 44 36 30 29 31 31 23 33 40 33 28 40 42 37 34 37 32 35 30 37 26 21 31 29 35 32 32 22 33 30 24 29 42 44 24 27 30 35 38 35 31 41 27 22 38 36 34 30 36 37 41 41 36 33 34 40 32 36 27 28 44 36 31 32 28 35 30 32 28 38 41 36 37 28 37 26 24 32 30 35 28 33 32 29 38 36 31 36 25 30 30 32 35 39 32 22 26 36 34 16 41 30 34 37 32 32 26 27 36 32 36 17 35 24 36 35 32 37 33 31 32 34 32 35 30 35 27 30 25 37 30 32 32 34 39 39 30 29 35 33 43 20 39 34 33 41 30 24 31 27 28 23 31 23 34 27 39 35 29 27 18 38 32 34 38 33 28 36 39 20 32 32 29 27 39 32 23 39 28 43 33 23 25 33 25 37 33 38 19 31 25 34 28 32 29 38 29 24 33 33 32 36 38 25 28 28 34 25 29 43 40 27 30 34 25 32 23 38 36 33 36 43 38 48 30 30 29 34 32 30 42 26 29 30 23 32 34 32 27 28 43 28 23 37 30 30 27 41 34 43 33 30 30 21 38 28 26 29 25 27 29 29 30 35 33 40 34 32 32 29 43 30 32 29 34 33 40 31 27 28 31 23 36 35 45 37 35 40 36 32 32 31 41 40 22 43 29 49 32 45 34 40 31 40 31 40 38 33 33 43 54 36 44 47 42 56 49 44 51 43 54 56 55 63 57 59 68 67 69 64 90 71 110 114 131 121 130 163 176 212 257 293 294 388 455 479 565 667 691 655 608 508 435 369 284 241 232 244 233 278 319 390 380 357 363 311 268 224 148 110 104 75 108 75 61 63 58 53 64 46 48 47 43 43 55 45 46 52 36 44 39 33 32 43 50 47 52 55 42 38 36 27 39 33 35 45 30 42 45 32 49 35 42 41 44 52 39 43 38 31 40 32 36 34 29 44 35 26 29 28 44 40 33 41 36 42 39 42 32 44 39 33 38 41 31 39 38 35 50 37 36 40 38 38 30 33 44 42 46 37 37 33 19 38 30 39 49 25 37 36 37 46 37 20 36 26 39 24 37 40 43 40 31 33 29 37 37 35 33 38 40 24 27 31 30 35 27 31 32 37 37 29 36 27 37 36 28 43 41 44 24 33 41 31 38 32 28 36 39 37 32 44 37 37 41 48 37 33 44 29 46 34 33 41 39 28 42 37 31 25 37 37 38 42 31 32 23 30 36 37 38 34 36 36 42 31 32 35 33 39 30 41 41 43 35 35 30 27 38 37 36 27 27 42 39 36 29 32 30 26 26 34 32 34 36 39 27 33 31 36 34 29 34 34 26 36 31 34 27 36 29 39 41 38 32 36 34 34 38 24 42 33 32 41 33 33 28 32 22 36 38 33 30 28 26 47 32 32 27 35 25 27 36 37 29 29 26 26 22 30 32 32 33 37 32 39 29 38 43 27 23 19 27 24 31 39 35 29 26 32 31 32 30 31 29 35 33 28 35 29 35 31 22 31 20 29 41 29 25 39 36 36 39 33 35 37 33 27 31 42 27 34 42 33 33 27 34 29 32 38 27 40 32 20 29 23 28 28 32 24 28 25 21 22 32 32 30 26 28 36 28 37 29 38 24 27 33 40 37 35 30 34 41 24 31 29 40 35 29 36 34 29 39 32 24 30 36 28 43 29 28 31 24 33 42 26 36 30 35 34 28 32 32 18 38 36 32 31 32 38 29 31 30 27 29 28 25 40 22 31 33 34 26 29 18 38 33 31 36 29 33 38 29 37 24 43 35 32 30 30 35 37 37 31 37 30 32 25 42 32 28 33 34 32 29 28 49 32 31 34 27 33 26 33 36 38 36 36 38 28 37 41 33 35 38 38 41 41 36 33 38 36 40 39 41 38 33 35 32 36 39 29 30 44 46 47 39 55 51 42 51 49 39 45 59 51 60 46 38 50 69 59 68 63 61 71 70 77 72 84 70 102 116 144 123 157 157 184 220 277 269 336 343 436 541 577 683 762 910 973 1023 1003 964 761 627 511 354 349 324 278 316 334 373 389 471 518 516 559 608 524 425 353 287 219 170 143 104 113 82 93 63 82 78 76 56 60 68 45 48 73 44 50 59 49 47 41 50 39 54 51 46 55 38 57 40 49 41 33 54 52 51 43 60 57 49 60 65 64 55 61 81 69 72 79 86 112 114 114 156 169 162 196 211 242 257 281 256 271 241 209 198 165 153 139 141 135 130 144 152 149 150 163 176 163 156 131 138 131 90 85 84 80 74 67 62 58 57 53 42 44 40 45 43 47 38 64 47 35 45 31 30 30 41 44 41 33 40 29 38 36 57 49 35 34 45 39 39 40 32 33 28 34 38 46 34 35 26 33 43 32 33 29 29 50 40 33 35 36 35 32 30 31 35 44 34 38 29 34 33 44 29 40 32 39 38 36 33 39 58 34 38 31 36 36 27 33 36 40 42 36 28 42 39 22 37 37 31 48 39 31 31 28 34 47 13 27 33 31 27 31 43 24 41 28 30 34 42 35 43 29 34 33 38 33 31 47 31 41 39 32 31 40 40 38 41 34 36 38 39 35 27 33 29 47 32 43 26 36 29 35 31 31 25 41 32 38 31 31 33 26 29 39 31 30 38 36 25 39 41</counts>
			</dataPoints>
		</scan>
	</xrdMeasurement>
</xrdMeasurements>
