<?xml version="1.0"?>
<xrdMeasurements xmlns="http://www.xrdml.com/XRDMeasurement/2.3" xmlns:xsi="http://www.w3.org/2001/XMLSchema-instance" xsi:schemaLocation="http://www.xrdml.com/XRDMeasurement/2.3 http://www.xrdml.com/XRDMeasurement/2.3/XRDMeasurement.xsd" status="Completed" recordIdentifier="{6943B19E-042D-4E1A-A5CD-EF7C4ACCD9E3}">
	<comment>
		<entry>Configuration=Stage for flat samples/holders, Owner=user, Creation date=2022/8/17 14:35:03</entry>
		<entry>Goniometer=Theta/Theta; Minimum step size 2Theta:0.0001; Minimum step size Omega:0.0001</entry>
		<entry>Sample stage=Stage for flat samples/holders</entry>
		<entry>Diffractometer system=EMPYREAN</entry>
		<entry>Measurement program=C:\PANalytical\Data Collector\Programs\OI.xrdmp, Created identifier={DCBD8AC7-4B89-4C88-A351-D1BB5E45255F}, Created by=user, Id=WL:DESKTOP-P0CKV1M:user, Creation date=2024/12/25 15:20:48, Modified identifier={183EADF2-9CCD-46D0-9A7E-89B1435A059F}, Modified by=user, Id=WL:DESKTOP-P0CKV1M:user, Modification date=2025/1/8 9:56:43</entry>
	</comment>
	<sample type="To be analyzed">
		<id></id>
		<name></name>
		<preparedBy></preparedBy>
	</sample>
	<xrdMeasurement measurementType="Scan" status="Completed" sampleMode="Reflection">
		<comment>
			<entry>PHD Lower Level = 5.63 (keV), PHD Upper Level = 12.88 (keV)</entry>
		</comment>
		<usedWavelength intended="K-Alpha 1">
			<kAlpha1 unit="Angstrom">1.5405980</kAlpha1>
			<kAlpha2 unit="Angstrom">1.5444260</kAlpha2>
			<kBeta unit="Angstrom">1.3922500</kBeta>
			<ratioKAlpha2KAlpha1>0.5000</ratioKAlpha2KAlpha1>
		</usedWavelength>
		<incidentBeamPath>
			<radius unit="mm">240.00</radius>
			<xRayTube id="1010048" name="Empyrean Cu LFF HR (9430 033 7310x) DK435787">
				<tension unit="kV">40.0</tension>
				<current unit="mA">40.0</current>
				<anodeMaterial>Cu</anodeMaterial>
				<focus type="Line">
					<length unit="mm">12.0</length>
					<width unit="mm">0.4</width>
					<takeOffAngle unit="deg">7.6</takeOffAngle>
				</focus>
			</xRayTube>
			<xRayMirror id="27020009" name="Bragg-Brentano HD Cu" hybrid="false">
				<crystal type="Graded" shape="Flat">BB/HD</crystal>
				<acceptanceAngle unit="deg">0.800</acceptanceAngle>
				<length unit="mm">55.3</length>
			</xRayMirror>
			<sollerSlit id="21010002" name="Soller slits 0.04 rad.">
				<opening unit="rad">0.0400</opening>
			</sollerSlit>
			<antiScatterSlit id="22010003" name="Fixed slit 1°" xsi:type="fixedAntiScatterSlitType">
				<height unit="mm">1.52</height>
			</antiScatterSlit>
			<divergenceSlit id="22010005" name="Fixed slit 1/4°" xsi:type="fixedDivergenceSlitType">
				<distanceToSample unit="mm">179.50</distanceToSample>
				<height unit="mm">0.38</height>
			</divergenceSlit>
		</incidentBeamPath>
		<diffractedBeamPath>
			<radius unit="mm">240.00</radius>
			<antiScatterSlit id="22090010" name="AS slit 8.0 mm (PIXcel)" xsi:type="fixedAntiScatterSlitType">
				<height unit="mm">8.00</height>
			</antiScatterSlit>
			<sollerSlit id="21020003" name="Large Soller slits 0.04 rad.">
				<opening unit="rad">0.0400</opening>
			</sollerSlit>
			<detector id="7010019" name="PIXcel1D-Medipix3 detector" xsi:type="rtmsDetectorType">
				<phd unit="%">
					<lowerLevel>35.0</lowerLevel>
					<upperLevel>80.0</upperLevel>
				</phd>
				<mode>Scanning</mode>
				<activeLength unit="deg">3.3482</activeLength>
			</detector>
		</diffractedBeamPath>
		<scan appendNumber="0" mode="Continuous" scanAxis="Gonio" status="Completed">
			<header>
				<startTimeStamp>2025-03-11T22:27:59+08:00</startTimeStamp>
				<endTimeStamp>2025-03-11T22:30:14+08:00</endTimeStamp>
				<author>
					<name>user</name>
				</author>
				<source>
					<applicationSoftware version="7.5b">Data Collector</applicationSoftware>
					<instrumentControlSoftware version="8.3b 20240626">EMPYREAN</instrumentControlSoftware>
					<instrumentID>0000000011271350</instrumentID>
				</source>
			</header>
			<dataPoints>
				<positions axis="2Theta" unit="deg">
					<startPosition>50.00656514</startPosition>
					<endPosition>79.99613077</endPosition>
				</positions>
				<positions axis="Omega" unit="deg">
					<startPosition>25.00328257</startPosition>
					<endPosition>39.99806539</endPosition>
				</positions>
				<commonCountingTime unit="seconds">9.945</commonCountingTime>
				<counts unit="counts">92 76 97 86 93 87 79 84 85 90 97 72 94 92 82 106 90 93 96 85 82 72 91 92 105 85 97 102 98 90 82 81 81 105 96 93 95 82 81 126 101 84 118 96 107 95 92 88 106 86 111 97 96 111 87 84 118 93 92 93 103 90 93 89 94 84 77 74 105 92 95 98 98 103 84 88 93 88 80 92 89 95 106 96 102 84 78 80 77 80 88 86 79 83 94 105 82 69 83 77 78 72 86 86 85 79 71 81 79 88 79 72 92 68 92 69 76 76 72 76 70 83 85 85 64 88 81 69 78 58 66 88 69 79 66 80 65 64 64 90 66 58 67 71 77 63 82 68 65 71 79 83 86 70 61 79 69 82 73 57 72 58 86 100 67 63 68 73 71 66 75 58 59 64 74 71 79 68 68 83 77 93 63 66 65 81 59 82 76 70 60 82 82 62 76 74 51 77 71 56 64 66 86 62 61 89 79 77 65 78 64 84 93 75 94 64 74 72 75 68 69 59 55 74 65 66 69 71 74 75 69 82 66 87 73 75 72 69 78 76 67 75 67 81 85 68 83 82 70 86 81 74 91 80 68 83 94 80 81 68 77 70 96 103 100 87 81 78 72 77 68 94 78 89 96 101 81 92 99 88 86 103 86 93 100 102 107 103 102 106 107 123 108 110 104 130 115 134 143 144 140 158 122 168 169 140 173 152 171 164 207 210 234 219 206 240 241 285 322 301 340 326 367 412 403 442 475 481 516 533 553 584 633 713 708 722 812 909 897 929 969 1041 1054 1099 1239 1102 1168 1171 1192 1154 1102 1003 906 905 873 816 723 716 723 682 623 585 492 505 423 374 325 274 263 216 217 210 186 212 173 166 135 137 143 126 138 147 112 112 105 115 129 119 89 101 120 99 96 100 96 82 102 81 99 95 99 90 96 83 110 95 98 89 91 100 100 90 84 99 83 86 103 99 91 88 110 84 103 91 96 86 105 120 105 112 121 137 127 148 136 160 185 158 191 207 237 244 265 306 318 358 390 392 484 545 581 635 750 768 915 1003 1149 1329 1441 1647 1851 1989 2217 2270 2193 1950 1591 1235 1111 1010 1011 1042 1077 1209 1232 1243 1119 890 674 497 345 291 225 218 157 159 152 129 155 116 129 110 124 93 119 100 108 105 97 93 81 96 101 121 96 82 84 73 88 71 81 83 74 76 84 73 94 75 88 86 88 81 61 73 91 78 78 78 80 82 68 79 65 77 76 72 76 78 81 68 77 69 66 62 69 76 70 63 69 81 60 68 82 81 91 94 81 71 68 65 71 81 77 78 63 70 67 82 66 65 71 72 67 75 76 87 66 70 63 81 79 61 69 63 63 67 88 60 70 70 72 78 75 82 62 53 74 62 74 58 71 65 71 60 68 70 69 77 63 58 85 66 73 68 71 74 79 64 55 79 73 67 71 59 88 79 81 71 89 83 73 71 85 83 80 85 66 77 69 68 70 68 92 95 71 90 69 85 55 66 64 76 82 80 90 94 77 77 88 85 94 82 91 82 104 82 95 81 72 93 82 75 76 96 82 79 89 92 97 98 92 88 88 106 86 86 83 104 103 96 106 112 114 108 95 75 125 90 98 107 117 94 88 109 106 90 114 115 132 105 98 135 105 111 111 104 119 121 134 110 110 126 134 123 159 145 157 131 122 129 114 132 125 141 117 130 138 152 120 124 141 138 132 146 132 130 143 129 123 150 127 144 153 160 131 121 119 156 128 150 135 135 132 132 119 136 119 121 127 135 106 107 132 141 113 99 100 134 127 115 100 105 113 98 105 103 103 116 99 101 92 112 94 76 97 109 104 107 94 95 95 88 96 92 86 80 98 112 95 86 75 96 86 70 106 91 109 85 99 100 99 85 77 82 75 60 75 92 94 71 75 80 83 79 68 80 67 85 59 76 68 83 92 83 88 70 80 66 63 66 60 67 80 85 65 58 72 67 67 60 73 60 62 71 72 77 76 77 63 62 57 67 75 54 72 69 62 68 65 55 66 52 57 59 54 40 70 54 67 62 49 60 64 60 61 52 55 53 54 52 57 70 48 61 44 54 53 65 57 57 55 55 56 56 51 58 59 51 74 62 54 56 47 53 66 47 56 58 45 45 49 49 58 66 52 75 59 64 51 51 53 53 53 58 68 73 64 47 51 54 51 47 57 52 54 55 37 54 52 46 63 45 50 42 36 69 48 48 50 59 47 57 59 55 50 47 53 54 50 63 55 48 58 51 57 51 48 50 54 58 47 40 45 50 47 60 50 39 58 36 52 57 57 45 48 51 46 65 39 45 52 51 45 46 57 59 49 47 44 44 42 51 38 55 42 47 52 47 44 56 46 51 50 55 47 45 60 62 45 43 56 39 56 43 40 54 54 56 41 54 39 42 48 55 55 51 41 47 47 48 49 39 43 47 61 53 40 55 49 52 37 47 38 41 51 51 42 45 31 45 44 54 44 47 37 47 46 62 49 42 40 50 53 40 49 46 47 49 43 47 41 56 48 40 55 51 39 54 51 37 56 38 45 50 46 52 43 59 46 27 44 43 44 45 49 41 44 42 54 52 48 33 46 46 55 47 43 53 56 52 59 49 45 34 45 35 50 36 33 52 42 44 49 48 52 59 35 44 58 49 41 43 37 61 54 46 46 39 50 57 43 35 40 33 36 49 35 42 38 47 51 57 43 38 55 41 48 53 47 33 37 63 51 52 39 37 51 40 39 46 42 47 40 45 47 45 41 32 47 32 51 48 43 60 40 41 51 46 38 36 45 54 40 35 59 47 51 57 34 46 47 41 38 49 34 49 37 48 34 44 46 51 48 53 54 45 36 53 49 46 45 37 50 44 35 44 44 38 54 47 38 42 41 41 42 43 40 37 44 50 41 49 47 47 46 52 50 32 46 51 44 49 52 50 52 36 38 42 42 52 46 35 36 46 45 49 39 40 33 46 46 48 33 34 43 31 32 50 56 47 44 36 35 48 38 39 40 47 35 35 54 45 57 47 38 45 38 40 45 45 38 52 45 47 53 52 49 52 53 60 44 46 57 46 55 38 45 46 44 48 54 47 65 45 55 45 44 42 51 43 43 50 61 46 40 49 43 44 40 45 46 49 47 39 41 46 49 43 53 49 50 57 51 26 56 48 36 38 50 47 44 59 47 48 44 44 53 32 49 40 50 58 49 48 46 57 47 34 49 54 49 55 60 52 66 53 39 67 61 60 54 61 67 77 62 64 57 82 83 87 98 79 116 93 118 107 119 137 128 148 168 186 238 210 238 262 290 305 338 367 402 462 487 489 507 471 428 368 288 232 244 219 201 236 220 244 244 265 317 294 278 211 199 153 128 114 93 100 73 62 80 55 73 71 62 54 50 62 60 62 50 65 58 47 61 42 51 61 57 51 53 54 52 55 47 46 41 49 59 45 49 41 42 45 43 57 51 53 46 50 46 54 42 52 50 53 46 62 39 51 51 43 49 48 56 58 53 44 60 40 44 51 33 42 45 50 54 49 39 46 49 55 43 45 53 50 46 54 55 34 47 45 37 54 56 62 49 49 41 43 43 47 43 43 59 49 54 46 58 37 46 56 50 39 52 45 59 56 53 59 55 44 57 49 40 54 50 49 58 47 43 50 41 59 51 58 61 32 42 63 62 62 53 49 56 48 36 51 40 62 50 42 51 58 38 51 44 55 38 46 47 47 44 48 49 57 44 62 40 51 49 53 64 56 40 49 53 41 42 44 37 51 45 49 46 54 48 45 54 49 57 63 54 43 40 46 55 51 50 61 52 36 45 45 46 48 49 58 53 56 41 40 55 53 41 48 45 55 40 44 41 53 50 39 40 43 34 45 43 46 57 48 48 40 39 49 48 57 55 49 46 47 41 64 39 37 41 48 57 53 43 51 51 42 48 38 48 35 41 44 47 34 55 55 40 35 55 49 40 49 53 51 54 43 43 52 49 44 35 39 55 43 47 38 39 38 33 45 51 38 41 51 47 23 48 49 54 49 50 49 42 50 39 45 35 49 51 35 41 47 47 46 34 52 42 32 44 54 44 47 46 37 44 49 42 46 47 48 33 40 46 39 44 54 49 53 40 39 32 43 47 52 41 53 36 52 46 45 35 45 38 55 40 42 45 43 50 45 45 51 33 38 42 46 47 47 32 33 30 50 43 41 49 54 41 43 54 47 55 49 43 49 44 45 49 43 50 46 49 41 41 46 42 53 40 42 42 54 50 49 39 36 47 45 39 46 50 41 50 35 45 41 35 55 45 53 39 47 48 34 53 40 43 42 49 38 46 46 49 46 62 50 42 56 49 41 46 70 41 50 46 49 43 49 55 44 50 32 37 48 52 37 49 54 44 42 47 53 48 40 44 45 39 48 53 52 47 58 46 48 47 41 44 43 43 44 39 53 57 41 39 47 60 57 63 44 40 65 45 57 40 63 46 49 42 46 46 50 49 65 67 75 62 66 97 77 77 90 93 95 110 107 118 122 116 148 131 165 184 177 213 220 233 287 276 329 339 389 420 432 490 558 591 702 711 764 767 733 609 512 398 321 293 260 290 296 326 326 336 351 398 421 409 442 426 338 305 231 174 149 116 113 95 98 100 75 70 67 75 88 61 48 61 59 56 77 62 60 52 62 61 70 62 62 74 61 57 61 57 55 68 63 66 66 83 86 83 74 102 108 97 120 128 133 135 164 138 162 197 198 226 224 265 296 281 353 364 356 434 414 466 428 452 423 387 300 277 268 267 225 206 242 227 261 234 260 285 265 275 279 229 228 209 182 157 145 116 127 120 90 88 90 76 76 77 55 65 81 63 68 63 60 60 60 61 63 64 70 50 49 57 61 68 61 59 65 64 64 57 50 49 52 58 67 47 69 50 55 46 46 59 52 48 59 50 48 56 44 45 54 50 53 52 53 41 59 65 50 43 46 50 48 47 54 48 51 48 48 59 39 38 61 36 51 52 55 52 38 47 65 49 53 59 58 41 47 44 51 39 50 54 48 36 65 59 43 57 46 37 34 45 40 44 47 33 63 47 34 52 44 51 49 53 53 42 47 54 48 42 49 48 45 40 54 48 46 53 51 54 50 40 52 60 51 49 57 34 53 57 40 41 40 57 61 41 53 39 38 53 55 47 51 43 46 57 43 50 44 47 35 47 46 46 39 37</counts>
			</dataPoints>
		</scan>
	</xrdMeasurement>
</xrdMeasurements>
