<?xml version="1.0"?>
<xrdMeasurements xmlns="http://www.xrdml.com/XRDMeasurement/2.3" xmlns:xsi="http://www.w3.org/2001/XMLSchema-instance" xsi:schemaLocation="http://www.xrdml.com/XRDMeasurement/2.3 http://www.xrdml.com/XRDMeasurement/2.3/XRDMeasurement.xsd" status="Completed" recordIdentifier="{C25CBF9B-929F-4E81-A969-B293A62E2F5E}">
	<comment>
		<entry>Configuration=Stage for flat samples/holders, Owner=user, Creation date=2022/8/17 14:35:03</entry>
		<entry>Goniometer=Theta/Theta; Minimum step size 2Theta:0.0001; Minimum step size Omega:0.0001</entry>
		<entry>Sample stage=Stage for flat samples/holders</entry>
		<entry>Diffractometer system=EMPYREAN</entry>
		<entry>Measurement program=C:\PANalytical\Data Collector\Programs\OI.xrdmp, Created identifier={DCBD8AC7-4B89-4C88-A351-D1BB5E45255F}, Created by=user, Id=WL:DESKTOP-P0CKV1M:user, Creation date=2024/12/25 15:20:48, Modified identifier={183EADF2-9CCD-46D0-9A7E-89B1435A059F}, Modified by=user, Id=WL:DESKTOP-P0CKV1M:user, Modification date=2025/1/8 9:56:43</entry>
	</comment>
	<sample type="To be analyzed">
		<id></id>
		<name></name>
		<preparedBy></preparedBy>
	</sample>
	<xrdMeasurement measurementType="Scan" status="Completed" sampleMode="Reflection">
		<comment>
			<entry>PHD Lower Level = 5.63 (keV), PHD Upper Level = 12.88 (keV)</entry>
		</comment>
		<usedWavelength intended="K-Alpha 1">
			<kAlpha1 unit="Angstrom">1.5405980</kAlpha1>
			<kAlpha2 unit="Angstrom">1.5444260</kAlpha2>
			<kBeta unit="Angstrom">1.3922500</kBeta>
			<ratioKAlpha2KAlpha1>0.5000</ratioKAlpha2KAlpha1>
		</usedWavelength>
		<incidentBeamPath>
			<radius unit="mm">240.00</radius>
			<xRayTube id="1010048" name="Empyrean Cu LFF HR (9430 033 7310x) DK435787">
				<tension unit="kV">40.0</tension>
				<current unit="mA">40.0</current>
				<anodeMaterial>Cu</anodeMaterial>
				<focus type="Line">
					<length unit="mm">12.0</length>
					<width unit="mm">0.4</width>
					<takeOffAngle unit="deg">7.6</takeOffAngle>
				</focus>
			</xRayTube>
			<xRayMirror id="27020009" name="Bragg-Brentano HD Cu" hybrid="false">
				<crystal type="Graded" shape="Flat">BB/HD</crystal>
				<acceptanceAngle unit="deg">0.800</acceptanceAngle>
				<length unit="mm">55.3</length>
			</xRayMirror>
			<sollerSlit id="21010002" name="Soller slits 0.04 rad.">
				<opening unit="rad">0.0400</opening>
			</sollerSlit>
			<antiScatterSlit id="22010003" name="Fixed slit 1°" xsi:type="fixedAntiScatterSlitType">
				<height unit="mm">1.52</height>
			</antiScatterSlit>
			<divergenceSlit id="22010005" name="Fixed slit 1/4°" xsi:type="fixedDivergenceSlitType">
				<distanceToSample unit="mm">179.50</distanceToSample>
				<height unit="mm">0.38</height>
			</divergenceSlit>
		</incidentBeamPath>
		<diffractedBeamPath>
			<radius unit="mm">240.00</radius>
			<antiScatterSlit id="22090010" name="AS slit 8.0 mm (PIXcel)" xsi:type="fixedAntiScatterSlitType">
				<height unit="mm">8.00</height>
			</antiScatterSlit>
			<sollerSlit id="21020003" name="Large Soller slits 0.04 rad.">
				<opening unit="rad">0.0400</opening>
			</sollerSlit>
			<detector id="7010019" name="PIXcel1D-Medipix3 detector" xsi:type="rtmsDetectorType">
				<phd unit="%">
					<lowerLevel>35.0</lowerLevel>
					<upperLevel>80.0</upperLevel>
				</phd>
				<mode>Scanning</mode>
				<activeLength unit="deg">3.3482</activeLength>
			</detector>
		</diffractedBeamPath>
		<scan appendNumber="0" mode="Continuous" scanAxis="Gonio" status="Completed">
			<header>
				<startTimeStamp>2025-03-12T22:23:08+08:00</startTimeStamp>
				<endTimeStamp>2025-03-12T22:25:22+08:00</endTimeStamp>
				<author>
					<name>user</name>
				</author>
				<source>
					<applicationSoftware version="7.5b">Data Collector</applicationSoftware>
					<instrumentControlSoftware version="8.3b 20240626">EMPYREAN</instrumentControlSoftware>
					<instrumentID>0000000011271350</instrumentID>
				</source>
			</header>
			<dataPoints>
				<positions axis="2Theta" unit="deg">
					<startPosition>50.00656514</startPosition>
					<endPosition>79.99613077</endPosition>
				</positions>
				<positions axis="Omega" unit="deg">
					<startPosition>25.00328257</startPosition>
					<endPosition>39.99806539</endPosition>
				</positions>
				<commonCountingTime unit="seconds">9.945</commonCountingTime>
				<counts unit="counts">102 91 95 68 82 85 78 78 73 79 107 87 85 90 98 76 87 105 101 94 100 71 77 92 84 100 72 81 89 95 81 86 92 94 99 99 114 86 84 116 103 90 107 105 96 91 100 100 91 94 97 92 102 100 90 102 82 106 99 99 100 92 75 100 96 90 96 67 93 86 93 68 81 79 83 78 72 79 72 90 88 75 84 93 89 69 69 83 79 79 99 66 82 76 67 76 76 71 58 58 69 80 68 87 78 84 80 88 69 75 86 90 78 66 70 64 70 64 83 64 72 73 71 80 62 72 67 60 66 60 77 73 57 79 79 78 64 63 60 79 76 59 62 75 56 67 72 66 83 72 55 52 56 63 61 70 61 66 62 67 63 53 59 66 74 68 66 62 72 74 66 63 69 61 71 60 71 59 64 61 66 77 55 63 54 59 65 57 63 76 50 64 56 72 47 62 56 65 64 82 59 65 70 52 64 75 55 81 64 62 84 57 61 59 67 76 51 70 75 75 78 67 80 84 75 80 67 59 60 63 71 67 73 64 78 66 66 60 68 59 64 63 63 72 86 60 68 73 57 70 70 60 64 69 69 68 57 80 60 66 75 66 57 85 89 88 86 66 98 77 86 77 78 80 86 80 100 75 85 81 88 99 75 94 85 71 98 92 94 95 107 70 98 117 114 101 121 119 116 131 109 129 150 128 131 144 144 145 170 155 188 159 163 188 197 184 222 201 221 258 270 286 313 333 331 352 370 426 432 439 478 545 531 553 557 629 651 673 751 744 790 884 911 981 943 921 1046 1050 1057 959 943 861 847 836 739 713 669 669 667 591 548 514 440 429 358 324 351 227 223 212 195 194 148 140 183 170 135 108 125 119 113 104 109 100 120 82 95 101 104 127 86 100 85 70 93 93 100 80 93 83 93 85 82 82 86 83 77 92 85 94 82 82 84 73 89 83 87 100 80 90 98 81 93 90 86 103 103 94 97 105 122 137 131 158 179 189 194 200 201 219 243 299 305 332 377 388 445 497 506 566 543 649 673 844 864 996 1052 1244 1404 1597 1821 2069 2336 2468 2412 2199 1729 1355 1128 1041 1041 1052 1128 1260 1330 1315 1272 1086 735 514 356 323 250 208 187 160 162 140 150 116 127 144 112 86 96 90 92 102 99 100 101 92 104 79 86 88 93 78 92 69 53 75 82 90 67 85 76 73 62 65 62 72 81 91 79 66 65 62 63 82 75 60 68 66 76 76 73 71 82 62 65 77 67 69 68 64 67 65 78 71 73 79 79 85 71 73 63 50 83 69 82 58 66 63 65 53 55 57 66 60 85 77 66 58 80 70 60 69 71 55 64 64 77 70 64 53 57 72 70 69 55 53 63 59 77 73 66 79 75 52 58 63 82 79 62 60 61 58 58 61 70 68 64 70 69 61 76 58 75 75 67 60 68 73 66 69 86 78 63 61 69 62 61 63 62 73 59 61 70 57 74 69 79 67 85 87 67 70 70 80 62 75 87 93 64 74 89 65 90 81 78 69 70 89 78 78 65 64 71 79 88 75 71 69 88 85 57 92 97 84 77 88 81 89 83 77 91 84 86 78 88 107 98 100 96 94 98 89 86 84 109 89 104 92 85 93 93 103 101 97 125 109 105 112 92 119 126 110 103 117 118 101 121 144 138 115 128 125 127 123 113 122 112 110 120 130 115 131 119 123 131 126 148 128 125 138 104 133 132 129 125 145 122 130 133 143 134 129 132 132 108 122 124 126 135 119 129 110 113 99 115 110 118 141 106 94 115 109 107 91 103 85 102 120 82 106 92 95 83 94 99 102 78 83 94 82 81 96 86 78 90 100 84 93 84 81 95 95 93 84 79 88 79 79 95 72 73 76 71 83 70 84 78 65 85 81 70 81 66 65 85 74 73 63 73 79 83 55 64 72 62 78 64 62 64 76 53 62 65 70 73 74 72 69 67 53 66 57 80 54 55 76 67 45 58 71 57 56 62 59 65 55 63 62 67 51 58 58 60 65 51 53 59 70 61 50 55 53 58 49 59 55 55 56 59 54 62 52 50 52 46 48 49 50 50 59 48 58 48 65 49 47 42 44 51 48 52 60 56 42 59 47 52 64 43 51 53 59 46 53 58 36 56 64 41 45 36 45 34 47 45 62 46 41 50 57 58 54 50 41 57 47 25 58 51 54 68 52 41 53 46 46 40 51 63 38 48 59 41 40 46 46 38 44 56 40 47 46 48 44 45 65 44 44 46 34 45 54 50 46 45 41 63 41 49 51 45 43 53 42 60 34 40 38 51 44 47 40 45 32 44 38 40 57 48 48 50 47 39 42 35 39 37 42 39 33 33 46 34 48 47 44 56 49 46 43 44 47 49 40 36 47 41 49 43 43 50 30 46 51 33 50 34 44 41 50 44 45 41 45 50 38 45 54 35 40 43 58 41 40 47 35 37 49 37 40 40 49 54 48 48 41 39 42 34 47 31 43 32 41 41 40 46 35 36 34 42 36 38 55 43 34 35 31 46 51 46 36 51 43 39 56 53 32 35 48 43 42 45 38 40 49 47 38 46 53 49 53 42 35 37 46 37 43 44 55 38 37 32 45 43 39 49 40 41 43 51 40 57 52 32 41 35 40 49 46 45 49 43 46 35 48 37 41 45 50 45 44 41 45 50 43 43 32 40 47 43 38 47 50 47 34 35 33 36 43 33 47 43 53 39 40 34 45 33 51 38 34 39 32 53 47 39 42 48 35 35 48 38 43 45 35 45 41 49 49 41 43 39 38 34 35 34 30 41 43 30 49 39 35 30 46 47 39 31 54 39 49 46 46 45 36 45 38 48 35 39 47 33 42 45 46 36 45 23 45 38 37 50 32 33 47 41 41 47 44 38 34 45 46 27 48 36 43 47 40 42 39 43 41 41 44 40 43 40 35 51 35 36 50 42 40 49 38 46 43 48 55 47 35 43 32 38 46 34 37 43 45 39 38 47 34 38 40 44 26 36 35 39 56 42 44 40 45 46 45 38 35 49 43 50 32 39 45 51 32 42 42 39 36 45 47 32 46 34 38 39 40 28 37 39 47 52 41 48 50 41 31 58 41 53 43 41 46 39 38 52 32 47 55 44 35 44 41 36 36 52 55 51 40 44 33 51 50 46 48 44 40 43 34 41 34 49 52 37 52 33 45 41 46 51 45 48 56 53 52 44 50 42 45 38 45 49 54 46 55 43 63 42 70 45 59 62 55 42 73 90 74 89 86 87 109 98 115 110 143 143 114 130 163 168 172 185 196 221 231 248 322 370 343 386 430 483 521 551 552 495 358 327 264 225 194 212 220 235 229 272 296 247 300 265 271 238 162 117 109 96 82 89 69 44 77 59 68 65 64 49 61 60 53 55 64 58 51 49 47 46 64 49 61 45 45 35 53 52 49 37 34 39 50 51 46 58 57 45 43 41 47 52 49 47 50 46 51 46 46 46 45 37 56 38 55 45 43 37 53 55 33 49 41 45 65 40 35 62 44 43 61 49 42 41 49 38 39 53 42 30 47 41 47 48 43 53 38 43 51 55 43 29 51 38 47 55 46 52 33 46 41 43 55 53 48 45 47 50 45 45 26 48 53 33 46 41 47 50 48 42 41 48 45 43 49 33 48 47 45 42 44 57 42 50 52 44 57 52 54 41 58 49 48 39 44 43 61 47 38 42 53 41 49 40 49 45 41 59 53 36 36 38 47 55 37 47 58 42 38 52 51 51 48 43 27 41 37 47 59 45 50 45 41 40 58 48 32 49 50 42 44 51 47 51 44 50 33 42 37 53 59 35 40 47 44 47 40 47 46 48 42 46 44 44 35 55 42 44 52 43 53 63 39 43 32 42 43 52 36 31 37 42 33 35 44 35 30 34 36 42 40 65 42 31 51 45 58 62 43 48 51 35 46 39 41 36 29 48 36 49 37 47 48 41 41 46 40 43 58 41 47 37 40 38 42 44 37 46 36 37 47 30 48 45 37 51 37 37 48 36 38 43 44 44 49 44 42 35 44 31 50 35 38 50 44 37 39 48 37 47 48 45 48 41 40 41 41 43 37 44 49 36 44 39 48 50 43 35 43 44 38 50 45 43 54 32 47 56 47 44 33 41 57 46 44 32 44 43 30 44 43 41 39 32 47 39 50 37 27 37 33 44 42 40 35 55 46 45 41 50 43 42 37 40 46 57 51 32 38 41 38 34 49 48 39 38 41 33 41 44 47 41 53 48 38 47 36 49 43 41 43 31 42 38 37 42 34 35 41 46 30 46 43 33 34 52 50 34 42 37 39 36 40 48 32 41 48 41 38 40 35 58 47 35 48 41 33 51 42 41 35 35 43 38 44 47 53 48 51 47 48 40 42 40 33 45 55 42 45 36 36 43 47 39 35 44 46 49 44 47 46 61 49 52 47 43 52 58 54 49 47 42 58 44 55 44 54 50 42 51 50 51 58 50 56 56 69 71 66 101 74 120 97 93 130 121 133 141 146 153 167 206 205 194 234 261 293 278 307 316 383 380 395 436 534 540 629 706 732 858 807 722 551 429 352 323 317 307 256 268 296 280 337 358 445 436 484 413 360 280 205 164 161 110 120 75 91 76 83 77 73 65 72 68 61 70 60 79 46 53 52 56 59 52 54 58 68 59 63 64 76 71 63 64 81 62 75 70 54 93 92 79 92 127 119 132 124 144 173 157 182 181 212 233 222 262 259 275 316 309 344 359 384 407 392 383 423 315 301 245 276 227 225 236 201 209 187 234 212 250 244 242 246 198 195 157 157 138 102 107 102 83 74 78 79 69 72 65 60 56 55 63 61 60 58 63 51 56 71 56 50 51 60 49 50 61 43 55 49 43 37 57 46 45 50 51 48 49 38 56 62 50 63 55 57 68 54 47 61 56 46 41 43 56 43 47 57 48 44 37 49 37 48 47 55 44 53 62 40 52 46 56 42 46 51 35 34 53 53 51 43 64 46 59 42 31 43 59 47 44 49 49 50 44 46 44 45 48 41 50 38 38 40 29 44 47 48 57 48 40 49 59 40 52 45 45 45 60 57 54 42 51 40 40 44 43 42 50 40 49 48 48 47 55 57 45 46 35 39 49 39 44 44 27 32 42 51 33 38 43 47 35 46 49 50 38 40 46 44 51 48 44 43 36 57 48 39 39</counts>
			</dataPoints>
		</scan>
	</xrdMeasurement>
</xrdMeasurements>
